freq,psd_x,psd_y,psd_z,psd_xyz
0.0,3.770e+03,2.956e+02,2.258e+02,4.291e+03
1.6,2.458e+03,5.758e+02,3.725e+02,3.407e+03
3.2,7.281e+02,5.709e+02,3.219e+02,1.621e+03
4.8,2.191e+03,4.992e+02,3.012e+02,2.992e+03
6.4,5.673e+03,5.080e+02,2.949e+02,6.476e+03
8.0,9.194e+03,4.950e+02,3.009e+02,9.990e+03
9.6,1.316e+04,5.556e+02,2.978e+02,1.401e+04
11.2,1.808e+04,6.293e+02,3.214e+02,1.903e+04
12.8,2.388e+04,6.344e+02,3.345e+02,2.485e+04
14.3,3.082e+04,6.581e+02,3.257e+02,3.180e+04
15.9,4.013e+04,5.526e+02,3.369e+02,4.101e+04
17.5,5.294e+04,5.217e+02,4.037e+02,5.386e+04
19.1,5.988e+04,6.079e+02,3.975e+02,6.089e+04
20.7,4.936e+04,6.531e+02,4.043e+02,5.042e+04
22.3,4.728e+04,6.507e+02,4.909e+02,4.843e+04
23.9,5.690e+04,7.383e+02,4.928e+02,5.813e+04
25.5,7.297e+04,8.242e+02,4.767e+02,7.427e+04
27.1,9.191e+04,7.747e+02,4.780e+02,9.316e+04
28.7,1.125e+05,7.704e+02,5.113e+02,1.138e+05
30.3,1.330e+05,7.660e+02,6.491e+02,1.344e+05
31.9,1.492e+05,9.540e+02,7.492e+02,1.509e+05
33.5,1.609e+05,1.122e+03,7.821e+02,1.628e+05
35.1,1.774e+05,1.362e+03,6.684e+02,1.794e+05
36.7,2.047e+05,1.386e+03,5.616e+02,2.067e+05
38.3,2.376e+05,1.301e+03,6.472e+02,2.395e+05
39.9,2.561e+05,1.359e+03,8.065e+02,2.582e+05
41.4,2.663e+05,1.432e+03,7.248e+02,2.684e+05
43.0,2.929e+05,1.503e+03,6.353e+02,2.950e+05
44.6,3.270e+05,1.497e+03,6.751e+02,3.291e+05
46.2,3.664e+05,1.489e+03,5.488e+02,3.685e+05
47.8,4.215e+05,1.510e+03,5.061e+02,4.235e+05
49.4,4.939e+05,1.613e+03,4.847e+02,4.960e+05
51.0,5.857e+05,1.615e+03,4.210e+02,5.878e+05
52.6,6.933e+05,1.774e+03,3.722e+02,6.955e+05
54.2,8.184e+05,1.896e+03,3.787e+02,8.206e+05
55.8,9.884e+05,1.716e+03,4.365e+02,9.905e+05
57.4,1.240e+06,1.198e+03,7.879e+02,1.242e+06
59.0,1.582e+06,1.193e+03,1.936e+03,1.585e+06
60.6,1.987e+06,1.954e+03,4.195e+03,1.993e+06
62.2,2.452e+06,3.106e+03,7.345e+03,2.463e+06
63.8,3.136e+06,4.966e+03,1.095e+04,3.152e+06
65.4,4.168e+06,1.107e+04,1.454e+04,4.194e+06
67.0,5.770e+06,3.350e+04,3.323e+04,5.837e+06
68.5,7.938e+06,8.314e+04,9.300e+04,8.114e+06
70.1,1.021e+07,1.791e+05,1.701e+05,1.056e+07
71.7,1.316e+07,4.172e+05,2.911e+05,1.387e+07
73.3,1.576e+07,7.274e+05,4.573e+05,1.694e+07
74.9,1.705e+07,8.714e+05,5.871e+05,1.851e+07
76.5,1.788e+07,9.044e+05,5.747e+05,1.936e+07
78.1,1.854e+07,9.270e+05,5.984e+05,2.006e+07
79.7,1.783e+07,8.918e+05,6.320e+05,1.935e+07
81.3,1.605e+07,8.686e+05,6.354e+05,1.756e+07
82.9,1.433e+07,8.786e+05,6.208e+05,1.583e+07
84.5,1.244e+07,8.753e+05,6.444e+05,1.396e+07
86.1,1.044e+07,8.789e+05,6.620e+05,1.198e+07
87.7,8.686e+06,9.034e+05,6.672e+05,1.026e+07
89.3,7.089e+06,8.484e+05,5.567e+05,8.494e+06
90.9,5.983e+06,7.145e+05,4.463e+05,7.144e+06
92.5,5.257e+06,6.055e+05,4.604e+05,6.323e+06
94.1,4.535e+06,5.013e+05,4.825e+05,5.518e+06
95.6,3.954e+06,4.749e+05,4.713e+05,4.900e+06
97.2,3.541e+06,4.109e+05,4.228e+05,4.375e+06
98.8,3.167e+06,4.414e+05,4.838e+05,4.092e+06
100.4,2.989e+06,4.388e+05,7.138e+05,4.141e+06
102.0,2.814e+06,3.733e+05,9.658e+05,4.153e+06
103.6,2.629e+06,3.249e+05,1.026e+06,3.980e+06
105.2,2.453e+06,2.927e+05,9.334e+05,3.679e+06
106.8,2.285e+06,2.471e+05,7.645e+05,3.297e+06
108.4,2.140e+06,2.213e+05,5.613e+05,2.923e+06
110.0,2.028e+06,2.391e+05,3.809e+05,2.648e+06
111.6,1.910e+06,1.827e+05,2.615e+05,2.354e+06
113.2,1.792e+06,1.043e+05,1.943e+05,2.091e+06
114.8,1.689e+06,6.557e+04,1.581e+05,1.913e+06
116.4,1.594e+06,6.734e+04,1.337e+05,1.795e+06
118.0,1.497e+06,7.613e+04,1.203e+05,1.693e+06
119.6,1.436e+06,8.073e+04,1.136e+05,1.630e+06
121.2,1.399e+06,8.255e+04,1.045e+05,1.586e+06
122.7,1.353e+06,7.811e+04,9.881e+04,1.530e+06
124.3,1.302e+06,6.951e+04,9.966e+04,1.472e+06
125.9,1.251e+06,6.200e+04,1.006e+05,1.413e+06
127.5,1.206e+06,5.763e+04,9.728e+04,1.361e+06
129.1,1.166e+06,5.686e+04,9.379e+04,1.317e+06
130.7,1.139e+06,5.705e+04,9.726e+04,1.293e+06
132.3,1.111e+06,5.745e+04,1.031e+05,1.272e+06
133.9,1.073e+06,5.848e+04,9.758e+04,1.229e+06
135.5,1.043e+06,5.683e+04,9.342e+04,1.193e+06
137.1,1.013e+06,5.714e+04,8.530e+04,1.156e+06
138.7,9.839e+05,5.878e+04,7.087e+04,1.114e+06
140.3,9.730e+05,6.253e+04,5.396e+04,1.089e+06
141.9,9.731e+05,7.591e+04,4.215e+04,1.091e+06
143.5,9.698e+05,9.872e+04,4.134e+04,1.110e+06
145.1,1.025e+06,9.486e+04,3.292e+04,1.153e+06
146.7,1.122e+06,7.662e+04,1.530e+04,1.213e+06
148.3,1.097e+06,6.861e+04,1.047e+04,1.176e+06
149.8,5.614e+05,5.208e+04,8.275e+03,6.217e+05
151.4,9.012e+04,4.741e+04,5.474e+03,1.430e+05
153.0,6.186e+04,4.213e+04,3.379e+03,1.074e+05
154.6,6.409e+04,3.503e+04,2.325e+03,1.015e+05
156.2,5.913e+04,3.524e+04,1.811e+03,9.618e+04
157.8,5.807e+04,3.764e+04,1.449e+03,9.715e+04
159.4,6.393e+04,3.954e+04,1.983e+03,1.054e+05
161.0,7.274e+04,3.851e+04,2.865e+03,1.141e+05
162.6,7.975e+04,3.594e+04,4.314e+03,1.200e+05
164.2,8.388e+04,3.252e+04,5.974e+03,1.224e+05
165.8,8.087e+04,3.228e+04,5.919e+03,1.191e+05
167.4,7.282e+04,3.741e+04,6.768e+03,1.170e+05
169.0,7.261e+04,4.281e+04,9.766e+03,1.252e+05
170.6,7.728e+04,4.729e+04,1.281e+04,1.374e+05
172.2,8.346e+04,4.821e+04,1.583e+04,1.475e+05
173.8,9.433e+04,4.772e+04,1.919e+04,1.612e+05
175.4,1.096e+05,4.768e+04,2.136e+04,1.786e+05
176.9,1.336e+05,4.213e+04,2.221e+04,1.979e+05
178.5,1.308e+05,2.520e+04,1.837e+04,1.743e+05
180.1,9.731e+04,1.473e+04,1.266e+04,1.247e+05
181.7,9.921e+04,1.506e+04,9.264e+03,1.235e+05
183.3,8.680e+04,1.551e+04,5.966e+03,1.083e+05
184.9,7.791e+04,1.536e+04,5.031e+03,9.830e+04
186.5,6.916e+04,1.540e+04,5.362e+03,8.991e+04
188.1,6.531e+04,1.512e+04,6.170e+03,8.660e+04
189.7,5.732e+04,1.715e+04,6.321e+03,8.080e+04
191.3,3.766e+04,1.897e+04,4.255e+03,6.088e+04
192.9,2.513e+04,2.009e+04,2.994e+03,4.821e+04
194.5,4.371e+04,1.457e+04,4.677e+03,6.295e+04
196.1,3.246e+04,6.567e+03,5.454e+03,4.448e+04
197.7,1.783e+04,5.531e+03,6.864e+03,3.022e+04
199.3,3.046e+04,5.458e+03,8.270e+03,4.419e+04
